# k [1/Mpc], Window(k) [Mpc]
9.999999999999999547e-08 7.172080493883518907e-10
1.042317000000000002e-07 7.778327205412678153e-10
1.086425999999999937e-07 8.435676584118178067e-10
1.132400000000000002e-07 9.148571775862146286e-10
1.180320999999999998e-07 9.921864833002983375e-10
1.230268999999999884e-07 1.076085690972435787e-09
1.282330999999999997e-07 1.167134298064745410e-09
1.336595999999999986e-07 1.265966049568493691e-09
1.393156999999999986e-07 1.373274341478499579e-09
1.452112000000000000e-07 1.489818035529102527e-09
1.513560999999999877e-07 1.616428329481324644e-09
1.577610999999999978e-07 1.754015510437639718e-09
1.644371999999999896e-07 1.903577487168197985e-09
1.713957000000000053e-07 2.066208073132816628e-09
1.786487999999999897e-07 2.243107003804276012e-09
1.862086999999999937e-07 2.435590739319928342e-09
1.940885999999999900e-07 2.645103870628296583e-09
2.023018999999999886e-07 2.873232634644286555e-09
2.108627999999999895e-07 3.121718969117486808e-09
2.197860000000000068e-07 3.392476703719247263e-09
2.290868000000000076e-07 3.687608602061740869e-09
2.387810999999999914e-07 4.009425736979372899e-09
2.488857000000000195e-07 4.360469809167305939e-09
2.594178999999999820e-07 4.743534562657908844e-09
2.703957999999999972e-07 5.161693311769910756e-09
2.818383000000000151e-07 5.618326806352188125e-09
2.937649999999999839e-07 6.117154501254836197e-09
3.061963000000000007e-07 6.662269010421522064e-09
3.191538000000000160e-07 7.258174436382125309e-09
3.326595999999999939e-07 7.909827256189061011e-09
3.467369000000000242e-07 8.622683840567146451e-09
3.614099000000000128e-07 9.402749452383421934e-09
3.767037999999999986e-07 1.025663458459762546e-08
3.926448999999999877e-07 1.119161560625652461e-08
4.092606999999999981e-07 1.221570302276299100e-08
4.265794999999999851e-07 1.333771334522227311e-08
4.446312999999999827e-07 1.456735166676523654e-08
4.634469000000000152e-07 1.591529913028494665e-08
4.830588000000000268e-07 1.739331158875108387e-08
5.035005999999999816e-07 1.901432603543979110e-08
5.248075000000000359e-07 2.079257643349305612e-08
5.470160000000000326e-07 2.274372345247149364e-08
5.701643000000000520e-07 2.488499616718371977e-08
5.942922000000000493e-07 2.723534293808298890e-08
6.194410999999999602e-07 2.981560070769499377e-08
6.456542000000000032e-07 3.264868138620404128e-08
6.729767000000000284e-07 3.575977117464810912e-08
7.014553000000000330e-07 3.917654897083723053e-08
7.311391000000000384e-07 4.292943242266570070e-08
7.620790000000000307e-07 4.705183519197972011e-08
7.943281999999999752e-07 5.158045225854955555e-08
8.279422000000000272e-07 5.655557841856673549e-08
8.629784999999999742e-07 6.202144273795668834e-08
8.994976000000000037e-07 6.802658086634227037e-08
9.375620000000000411e-07 7.462424329731779095e-08
9.772371999999999886e-07 8.187282675571685185e-08
1.018591000000000045e-06 8.983636132742668422e-08
1.061696000000000033e-06 9.858501801766330192e-08
1.106623999999999944e-06 1.081956887082774275e-07
1.153453000000000025e-06 1.187525858527257711e-07
1.202263999999999972e-06 1.303479138409307886e-07
1.253140999999999985e-06 1.430825820982425909e-07
1.306170999999999924e-06 1.570670092143069779e-07
1.361444999999999973e-06 1.724219223746562403e-07
1.419058000000000000e-06 1.892793333531173690e-07
1.479107999999999959e-06 2.077834739627572061e-07
1.541699999999999995e-06 2.280919004437363509e-07
1.606941000000000095e-06 2.503766257806670511e-07
1.674942999999999965e-06 2.748253857579597776e-07
1.745822000000000054e-06 3.016429723996847525e-07
1.819700999999999944e-06 3.310526483385451593e-07
1.896705999999999938e-06 3.632977849948677639e-07
1.976969999999999895e-06 3.986434611093516719e-07
2.060630000000000208e-06 4.373782686160835181e-07
2.147829999999999983e-06 4.798162797749694152e-07
2.238721000000000211e-06 5.262991112280063394e-07
2.333457999999999877e-06 5.771981039768682298e-07
2.432203999999999880e-06 6.329167599207647580e-07
2.535128999999999830e-06 6.938932039534897953e-07
2.642408999999999928e-06 7.606029912612896716e-07
2.754228999999999986e-06 8.335618752991348004e-07
2.870780999999999798e-06 9.133290462855506025e-07
2.992264999999999802e-06 1.000510269359605800e-06
3.118890000000000051e-06 1.095761473438946300e-06
3.250872999999999969e-06 1.199792450853686886e-06
3.388441999999999922e-06 1.313370588410332435e-06
3.531831999999999832e-06 1.437325452442305133e-06
3.681289999999999952e-06 1.572552702827308664e-06
3.837072000000000148e-06 1.720019130203353751e-06
3.999446999999999589e-06 1.880767160431919617e-06
4.168693999999999834e-06 2.055920488276815316e-06
4.345101999999999755e-06 2.246689035253528981e-06
4.528976000000000360e-06 2.454375028018457061e-06
4.720629999999999728e-06 2.680378440816803959e-06
4.920395000000000008e-06 2.926203556128188080e-06
5.128614000000000293e-06 3.193465575645422758e-06
5.345643999999999636e-06 3.483896849670677842e-06
5.571856999999999837e-06 3.799354335677829692e-06
5.807643999999999617e-06 4.141826618667736069e-06
6.053408999999999965e-06 4.513441232096795878e-06
6.309573000000000008e-06 4.916472925709960359e-06
6.576577999999999665e-06 5.353350799242972456e-06
6.854882000000000144e-06 5.826667165558442736e-06
7.144962999999999815e-06 6.339185396318417661e-06
7.447320000000000383e-06 6.893848363197668013e-06
7.762470999999999629e-06 7.493787265979645282e-06
8.090959000000000473e-06 8.142330292878574059e-06
8.433348000000000694e-06 8.843011448299366745e-06
8.790224999999999344e-06 9.599578684156194285e-06
9.162205000000000482e-06 1.041600379051229344e-05
9.549925999999999272e-06 1.129649038460040408e-05
9.954053999999999276e-06 1.224548312800726977e-05
1.037528000000000072e-05 1.326767555302645091e-05
1.081434000000000021e-05 1.436801909304840288e-05
1.127196999999999942e-05 1.555173246137002001e-05
1.174898000000000080e-05 1.682430446194248423e-05
1.224616000000000033e-05 1.819151029195995893e-05
1.276439000000000028e-05 1.965941108190291599e-05
1.330454000000000052e-05 2.123436450864547292e-05
1.386755999999999975e-05 2.292303040013934275e-05
1.445440000000000005e-05 2.473237625712034252e-05
1.506606999999999922e-05 2.666968304271246981e-05
1.570362999999999859e-05 2.874255267848640821e-05
1.636817000000000155e-05 3.095890642434913657e-05
1.706081999999999906e-05 3.332699376188138449e-05
1.778279000000000123e-05 3.585539307325851400e-05
1.853531999999999993e-05 3.855301492262925542e-05
1.931967999999999931e-05 4.142910221422744453e-05
2.013724000000000034e-05 4.449323580685312480e-05
2.098939999999999931e-05 4.775532370134242269e-05
2.187762000000000010e-05 5.122561396614154987e-05
2.280342000000000062e-05 5.491468123689576160e-05
2.376840000000000100e-05 5.883343259603715503e-05
2.477421999999999876e-05 6.299310205674940209e-05
2.582259999999999905e-05 6.740524165918087554e-05
2.691534999999999972e-05 7.208172331358818634e-05
2.805433999999999947e-05 7.703472516083382788e-05
2.924151999999999917e-05 8.227672495198540162e-05
3.047895000000000064e-05 8.782049943204154967e-05
3.176874000000000240e-05 9.367909724660361450e-05
3.311311000000000050e-05 9.986584082424961560e-05
3.451437000000000070e-05 1.063942983710792117e-04
3.597493000000000218e-05 1.132782744309506021e-04
3.749729999999999757e-05 1.205317866341974389e-04
3.908409000000000004e-05 1.281690390533061878e-04
4.073802999999999729e-05 1.362043899087146215e-04
4.246195999999999825e-05 1.446523237054268536e-04
4.425883999999999992e-05 1.535274144180440257e-04
4.613176000000000163e-05 1.628442688943653664e-04
4.808392999999999755e-05 1.726174601071391197e-04
5.011871999999999980e-05 1.828615372421679177e-04
5.223962000000000180e-05 1.935908393267582364e-04
5.445027000000000070e-05 2.048195141156654504e-04
5.675445999999999735e-05 2.165613518197283412e-04
5.915615999999999843e-05 2.288297282746976557e-04
6.165949999999999469e-05 2.416374321920963786e-04
6.426877000000000165e-05 2.549965402009569471e-04
6.698845999999999458e-05 2.689182813371775562e-04
6.982324000000000202e-05 2.834127911656043062e-04
7.277797999999999874e-05 2.984889311499375566e-04
7.585776000000000129e-05 3.141540384100925177e-04
7.906785999999999958e-05 3.304136827872679641e-04
8.241381000000000097e-05 3.472713233652483856e-04
8.590135000000000045e-05 3.647279542528316667e-04
8.953647999999999761e-05 3.827818342685395119e-04
9.332542999999999460e-05 4.014278769180712968e-04
9.727472000000000028e-05 4.206573765344374808e-04
1.013910999999999990e-04 4.404573518975635530e-04
1.056817999999999950e-04 4.608100701280171368e-04
1.101538999999999958e-04 4.816924320266388376e-04
1.148154000000000053e-04 5.030752579082530939e-04
1.196740999999999999e-04 5.249226343353206392e-04
1.247383999999999982e-04 5.471911314889158244e-04
1.300170000000000123e-04 5.698290497617070115e-04
1.355189000000000079e-04 5.927755281191601951e-04
1.412538000000000129e-04 6.159597119562693459e-04
1.472312999999999942e-04 6.393000137545059788e-04
1.534616999999999947e-04 6.627030044320678321e-04
1.599558000000000110e-04 6.860627992792002038e-04
1.667247000000000065e-04 7.092602782085608666e-04
1.737801000000000135e-04 7.321622478858303123e-04
1.811340000000000042e-04 7.546210677228623901e-04
1.887990999999999996e-04 7.764742013794268937e-04
1.967886000000000017e-04 7.975441270422721756e-04
2.051161999999999929e-04 8.176384809044898215e-04
2.137961999999999979e-04 8.365506920003167816e-04
2.228435000000000019e-04 8.540609428134946120e-04
2.322737000000000120e-04 8.699377215499003299e-04
2.421028999999999889e-04 8.839401000812791443e-04
2.523480999999999836e-04 8.958206003745101693e-04
2.630267999999999734e-04 9.053288995724457795e-04
2.741573999999999986e-04 9.122165370863513948e-04
2.857590999999999929e-04 9.162424379896430895e-04
2.978516000000000063e-04 9.171794490548338535e-04
3.104560000000000240e-04 9.148218913819932980e-04
3.235937000000000253e-04 9.089940139523578150e-04
3.372873000000000190e-04 8.995592648421699752e-04
3.515603999999999756e-04 8.864302085385724868e-04
3.664375999999999896e-04 8.695787763901731545e-04
3.819442999999999948e-04 8.490467375053978999e-04
3.981071999999999888e-04 8.249555013979690881e-04
4.149539999999999848e-04 7.975151658720920460e-04
4.325137999999999856e-04 7.670319271652494648e-04
4.508167000000000099e-04 7.339130571865882472e-04
4.698940999999999773e-04 6.986690253899456408e-04
4.897788000000000141e-04 6.619113538919468333e-04
5.105049999999999649e-04 6.243461149443868151e-04
5.321082999999999889e-04 5.867616882573916054e-04
5.546257000000000183e-04 5.500107827838224359e-04
5.780959999999999484e-04 5.149859055835179266e-04
6.025596000000000034e-04 4.825890308110358080e-04
6.280584000000000514e-04 4.536954988593099253e-04
6.546361999999999581e-04 4.291137744414303735e-04
6.823387000000000202e-04 4.095432549593647155e-04
7.112134999999999898e-04 3.955322975041012496e-04
7.413101999999999756e-04 3.874406098191309736e-04
7.726805999999999692e-04 3.854098336522357535e-04
8.053783999999999596e-04 3.893461149447420338e-04
8.394599999999999892e-04 3.989196415639001164e-04
8.749838000000000234e-04 4.135833187258015843e-04
9.120108000000000468e-04 4.326132333430407310e-04
9.506048000000000232e-04 4.551697922267287227e-04
9.908319000000000501e-04 4.803763958032765706e-04
1.032761000000000096e-03 5.074080124982433167e-04
1.076464999999999974e-03 5.355797064116313419e-04
1.122018000000000017e-03 5.644215221053909938e-04
1.169499000000000059e-03 5.937260139391560771e-04
1.218990000000000091e-03 6.235567545452194282e-04
1.270574000000000009e-03 6.542110397582664777e-04
1.324342000000000054e-03 6.861393496370556339e-04
1.380383999999999908e-03 7.198344939739025061e-04
1.438798999999999937e-03 7.557143964992829458e-04
1.499684999999999950e-03 7.940286993838287450e-04
1.563148000000000098e-03 8.348178037057287729e-04
1.629295999999999913e-03 8.779396077027846849e-04
1.698244000000000012e-03 9.231583688411636526e-04
1.770108999999999962e-03 9.702644665394271868e-04
1.845014999999999980e-03 1.019176415760840362e-03
1.923091999999999944e-03 1.069978678313628214e-03
2.004472000000000198e-03 1.122875274575531974e-03
2.089296000000000035e-03 1.178081302525310669e-03
2.177709999999999802e-03 1.235712710973858267e-03
2.269864999999999817e-03 1.295740836083204275e-03
2.365920000000000089e-03 1.358040068320060792e-03
2.466039000000000165e-03 1.422491497221329117e-03
2.570395999999999966e-03 1.489059645082737053e-03
2.679168000000000001e-03 1.557776057403449915e-03
2.792544000000000103e-03 1.628645373939468328e-03
2.910717000000000165e-03 1.701563337619091008e-03
3.033890999999999932e-03 1.776329796850799423e-03
3.162278000000000137e-03 1.852731452060393715e-03
3.296097000000000003e-03 1.930583285184870115e-03
3.435578999999999803e-03 2.009672870658129468e-03
3.580963999999999849e-03 2.089684460137170192e-03
3.732501999999999955e-03 2.170209562072902311e-03
3.890451000000000065e-03 2.250808543423434265e-03
4.055084999999999940e-03 2.331001866247328722e-03
4.226686000000000332e-03 2.410206305717514479e-03
4.405548999999999923e-03 2.487733071459485683e-03
4.591979999999999847e-03 2.562830618241303954e-03
4.786300999999999750e-03 2.634661421509732881e-03
4.988845000000000432e-03 2.702271670382430570e-03
5.199959999999999999e-03 2.764618345072523010e-03
5.420008999999999938e-03 2.820575426911822378e-03
5.649369999999999913e-03 2.868915557810820631e-03
5.888436999999999838e-03 2.908338667434169026e-03
6.137619999999999881e-03 2.937486003012513853e-03
6.397347999999999750e-03 2.954951216023433015e-03
6.668068000000000085e-03 2.959323507849659276e-03
6.950243000000000046e-03 2.949214144403736280e-03
7.244360000000000036e-03 2.923310344374490440e-03
7.550921999999999842e-03 2.880428385267250809e-03
7.870458000000000315e-03 2.819581401493745625e-03
8.203514999999999766e-03 2.740053161301505679e-03
8.550666999999999643e-03 2.641480125613547645e-03
8.912509000000000750e-03 2.523901391807205873e-03
9.289663999999999561e-03 2.387987761556699482e-03
9.682779000000000733e-03 2.234894921573481012e-03
1.009253000000000060e-02 2.156127554722132682e-03
1.051962000000000036e-02 2.080549354734293269e-03
1.096478000000000036e-02 2.008061241825799623e-03
1.142877999999999949e-02 1.938543341402362147e-03
1.191241999999999995e-02 1.871883710826522393e-03
1.241652000000000033e-02 1.807971268631757260e-03
1.294196000000000062e-02 1.746696613140873199e-03
1.348963000000000072e-02 1.687952234716177426e-03
1.406048000000000020e-02 1.631632681039385307e-03
1.465548000000000024e-02 1.577633055898285510e-03
1.527565999999999993e-02 1.525848309162750526e-03
1.592208999999999985e-02 1.476172171134648974e-03
1.659586999999999868e-02 1.428496947807183668e-03
1.729815999999999993e-02 1.382712882180934990e-03
1.803017999999999982e-02 1.338707679769756504e-03
1.879317000000000140e-02 1.296366024950099029e-03
1.958845000000000031e-02 1.255570561245585286e-03
2.041737999999999886e-02 1.216202120986075320e-03
2.128139000000000072e-02 1.178141280844707687e-03
2.218196000000000057e-02 1.141269996110765147e-03
2.312064999999999954e-02 1.105474994450364240e-03
2.409905000000000033e-02 1.070651011521080685e-03
2.511885999999999980e-02 1.036704451377863092e-03
2.618182999999999969e-02 1.003561025193767681e-03
2.728977999999999959e-02 9.711675484201383974e-04
2.844460999999999865e-02 9.395005363941076387e-04
2.964831000000000064e-02 9.085675606530378744e-04
3.090294999999999848e-02 8.784123983365598820e-04
3.221069000000000015e-02 8.491124592385193483e-04
3.357376000000000110e-02 8.207765560664328662e-04
3.499452000000000118e-02 7.935314718675438340e-04
3.647539000000000337e-02 7.675114427177864938e-04
3.801894000000000107e-02 7.428324142286490137e-04
3.962779999999999775e-02 7.195718585298801215e-04
4.130475000000000119e-02 6.977419778855645021e-04
4.305265999999999954e-02 6.772641380454782730e-04
4.487453999999999749e-02 6.579653314560385529e-04
4.677350999999999731e-02 6.395750913477869478e-04
4.875285000000000035e-02 6.217639859841017679e-04
5.081593999999999695e-02 6.041977794304140932e-04
5.296634000000000064e-02 5.866150136310115419e-04
5.520773999999999820e-02 5.689041335646210194e-04
5.754399000000000319e-02 5.511382484662921992e-04
5.997911000000000215e-02 5.336165476641817947e-04
6.251726999999999979e-02 5.167965478148766082e-04
6.516283999999999965e-02 5.011323463371921598e-04
6.792035999999999907e-02 4.869058978251228830e-04
7.079457999999999585e-02 4.740464977290585378e-04
7.379041999999999546e-02 4.620804234215043684e-04
7.691304000000000196e-02 4.502697160477914218e-04
8.016781000000000601e-02 4.379435374282607935e-04
8.356030000000000402e-02 4.248934272361127792e-04
8.709635999999999767e-02 4.115940354522801530e-04
9.078205000000000302e-02 3.990170691468997318e-04
9.462371999999999450e-02 3.880140797290960487e-04
9.862795000000000589e-02 3.786097378103334111e-04
1.028016000000000069e-01 3.698068473770807518e-04
1.071518999999999944e-01 3.602733447778477490e-04
1.116863000000000022e-01 3.495575558481280108e-04
1.164126000000000050e-01 3.387236290943661482e-04
1.213388999999999995e-01 3.293797602108812029e-04
1.264735999999999916e-01 3.217999139720153124e-04
1.318256999999999901e-01 3.143124796472388329e-04
1.374042000000000041e-01 3.053181655036606959e-04
1.432188000000000072e-01 2.956299358480862522e-04
1.492794000000000065e-01 2.873951957830785196e-04
1.555966000000000016e-01 2.801093061496157067e-04
1.621809999999999918e-01 2.700169061597035725e-04
1.690441000000000027e-01 2.570570266562768923e-04
1.761976000000000098e-01 2.400337600141708031e-04
1.836538000000000059e-01 2.197993044735255621e-04
1.914256000000000013e-01 2.005840940821996480e-04
1.995261999999999869e-01 1.788087419385466512e-04
2.079697000000000073e-01 1.626785220741961877e-04
2.167704000000000020e-01 1.514107278647119860e-04
2.259435999999999944e-01 1.390380558553474123e-04
2.355048999999999892e-01 1.319857501587727642e-04
2.454708999999999919e-01 1.236994256263029563e-04
2.558585999999999916e-01 1.166094163609737689e-04
2.666858999999999758e-01 1.118400308019536525e-04
2.779712999999999767e-01 1.056551247870574274e-04
2.897344000000000031e-01 1.025401649453831077e-04
3.019952000000000192e-01 9.798725966946165544e-05
3.147748000000000212e-01 9.569333298211753973e-05
3.280952999999999786e-01 9.234884338467278626e-05
3.419793999999999889e-01 9.092499880470346731e-05
3.564511000000000207e-01 8.809984458523756052e-05
3.715352000000000099e-01 8.690568355714389391e-05
3.872575999999999796e-01 8.506357673044067562e-05
4.036453999999999875e-01 8.414029915071655880e-05
4.207266000000000061e-01 8.338191163872763563e-05
4.385306999999999955e-01 8.196246792755980349e-05
4.570882000000000001e-01 8.037489018354188324e-05
4.764309999999999934e-01 7.904972238270743920e-05
4.965922999999999865e-01 7.769035378199046172e-05
5.176068000000000335e-01 7.621935381242732354e-05
5.395105999999999513e-01 7.488373786454961963e-05
5.623413000000000439e-01 7.363588429786622428e-05
5.861382000000000536e-01 7.231698757591581048e-05
6.109419999999999851e-01 7.093824061008704800e-05
6.367954999999999588e-01 6.963636798808922807e-05
6.637431000000000303e-01 6.818745976599032408e-05
6.918309999999999738e-01 6.815369474078411722e-05
7.211075000000000124e-01 6.557968694502964481e-05
7.516228999999999827e-01 6.235528715708827763e-05
7.834295999999999482e-01 6.871222491880633301e-05
8.165824000000000416e-01 5.786509886533739415e-05
8.511379999999999502e-01 6.230994880594867378e-05
8.871559999999999446e-01 6.254602544415456241e-05
9.246982000000000257e-01 5.434863237862417218e-05
9.638290000000000468e-01 6.333820913580696162e-05
1.004615999999999953e+00 5.104577487984181364e-05
1.047128999999999976e+00 6.126209505914745400e-05
1.091439999999999966e+00 4.933219671371498000e-05
1.137626999999999944e+00 5.799375733823040262e-05
1.185769000000000073e+00 4.912663108004547039e-05
1.235946999999999907e+00 5.273304936239828835e-05
1.288249999999999895e+00 5.154767005408111472e-05
1.342764999999999986e+00 4.601228992530787497e-05
1.399586999999999914e+00 5.261648533385325120e-05
1.458814000000000055e+00 4.442798450637219137e-05
