# k [1/Mpc], Window(k) [Mpc]
9.999999999999999547e-08 6.883904178143616028e-10
1.042317000000000002e-07 7.402714860694767720e-10
1.086425999999999937e-07 7.960705741792447192e-10
1.132400000000000002e-07 8.560978964466872979e-10
1.180320999999999998e-07 9.206902813901381878e-10
1.230268999999999884e-07 9.902136254847230346e-10
1.282330999999999997e-07 1.065065555090459927e-09
1.336595999999999986e-07 1.145678204088042974e-09
1.393156999999999986e-07 1.232521937558582582e-09
1.452112000000000000e-07 1.326108359178770971e-09
1.513560999999999877e-07 1.426994503659689227e-09
1.577610999999999978e-07 1.535787148360227397e-09
1.644371999999999896e-07 1.653147260023682201e-09
1.713957000000000053e-07 1.779795388092675916e-09
1.786487999999999897e-07 1.916517201305933987e-09
1.862086999999999937e-07 2.064169671301210003e-09
1.940885999999999900e-07 2.223687848498899561e-09
2.023018999999999886e-07 2.396092415149793568e-09
2.108627999999999895e-07 2.582497553037119940e-09
2.197860000000000068e-07 2.784120028461515640e-09
2.290868000000000076e-07 3.002289300508454857e-09
2.387810999999999914e-07 3.238457609365812934e-09
2.488857000000000195e-07 3.494212086593896552e-09
2.594178999999999820e-07 3.771287673093167324e-09
2.703957999999999972e-07 4.071580824420862698e-09
2.818383000000000151e-07 4.397165363263843802e-09
2.937649999999999839e-07 4.750308751260215787e-09
3.061963000000000007e-07 5.133490875262600988e-09
3.191538000000000160e-07 5.549424049061561218e-09
3.326595999999999939e-07 6.001075357336575343e-09
3.467369000000000242e-07 6.491689732287359724e-09
3.614099000000000128e-07 7.024817182564671830e-09
3.767037999999999986e-07 7.604340797227526408e-09
3.926448999999999877e-07 8.234508117887722168e-09
4.092606999999999981e-07 8.919965689087531061e-09
4.265794999999999851e-07 9.665795204353183122e-09
4.446312999999999827e-07 1.047755550561248515e-08
4.634469000000000152e-07 1.136132495063563716e-08
4.830588000000000268e-07 1.232375105549440421e-08
5.035005999999999816e-07 1.337210242449146644e-08
5.248075000000000359e-07 1.451432482607887996e-08
5.470160000000000326e-07 1.575910483520446874e-08
5.701643000000000520e-07 1.711593567305754646e-08
5.942922000000000493e-07 1.859519181025017434e-08
6.194410999999999602e-07 2.020820724198239186e-08
6.456542000000000032e-07 2.196736346290052518e-08
6.729767000000000284e-07 2.388618207049389821e-08
7.014553000000000330e-07 2.597942717828387956e-08
7.311391000000000384e-07 2.826321658496776841e-08
7.620790000000000307e-07 3.075513781492546899e-08
7.943281999999999752e-07 3.347438575647441765e-08
8.279422000000000272e-07 3.644189248949316194e-08
8.629784999999999742e-07 3.968048755770838465e-08
8.994976000000000037e-07 4.321505716439610020e-08
9.375620000000000411e-07 4.707272824289263350e-08
9.772371999999999886e-07 5.128305067065083576e-08
1.018591000000000045e-06 5.587821143453850002e-08
1.061696000000000033e-06 6.089326119341778499e-08
1.106623999999999944e-06 6.636633942522589103e-08
1.153453000000000025e-06 7.233895778957683596e-08
1.202263999999999972e-06 7.885625741214335632e-08
1.253140999999999985e-06 8.596732913204860541e-08
1.306170999999999924e-06 9.372551923555894000e-08
1.361444999999999973e-06 1.021887905639869968e-07
1.419058000000000000e-06 1.114200924976486953e-07
1.479107999999999959e-06 1.214877603959570774e-07
1.541699999999999995e-06 1.324659426195143567e-07
1.606941000000000095e-06 1.444350759885206062e-07
1.674942999999999965e-06 1.574823666471671435e-07
1.745822000000000054e-06 1.717022938197094266e-07
1.819700999999999944e-06 1.871972415641491216e-07
1.896705999999999938e-06 2.040780434791650625e-07
1.976969999999999895e-06 2.224646285907609861e-07
2.060630000000000208e-06 2.424867264781028549e-07
2.147829999999999983e-06 2.642846082606028363e-07
2.238721000000000211e-06 2.880098225261315893e-07
2.333457999999999877e-06 3.138260453212513784e-07
2.432203999999999880e-06 3.419099764689021282e-07
2.535128999999999830e-06 3.724522048552964727e-07
2.642408999999999928e-06 4.056582751677603116e-07
2.754228999999999986e-06 4.417496350167247660e-07
2.870780999999999798e-06 4.809648544578745840e-07
2.992264999999999802e-06 5.235606412876159733e-07
3.118890000000000051e-06 5.698131874997896846e-07
3.250872999999999969e-06 6.200193730505052572e-07
3.388441999999999922e-06 6.744981648154800916e-07
3.531831999999999832e-06 7.335920152568956666e-07
3.681289999999999952e-06 7.976683007197143621e-07
3.837072000000000148e-06 8.671209958029177322e-07
3.999446999999999589e-06 9.423721379011763621e-07
4.168693999999999834e-06 1.023873584448929315e-06
4.345101999999999755e-06 1.112108821078074238e-06
4.528976000000000360e-06 1.207594598525311602e-06
4.720629999999999728e-06 1.310883075590360716e-06
4.920395000000000008e-06 1.422563343723958270e-06
5.128614000000000293e-06 1.543263984396714567e-06
5.345643999999999636e-06 1.673654619662293137e-06
5.571856999999999837e-06 1.814448186727673123e-06
5.807643999999999617e-06 1.966403176471279403e-06
6.053408999999999965e-06 2.130325610349694272e-06
6.309573000000000008e-06 2.307071366041500383e-06
6.576577999999999665e-06 2.497548505745399473e-06
6.854882000000000144e-06 2.702719273290597424e-06
7.144962999999999815e-06 2.923602613222121582e-06
7.447320000000000383e-06 3.161276062216655256e-06
7.762470999999999629e-06 3.416878555810068516e-06
8.090959000000000473e-06 3.691611921354175273e-06
8.433348000000000694e-06 3.986743466852518547e-06
8.790224999999999344e-06 4.303608056486049710e-06
9.162205000000000482e-06 4.643610332757771446e-06
9.549925999999999272e-06 5.008226334108042219e-06
9.954053999999999276e-06 5.399005220258030146e-06
1.037528000000000072e-05 5.817571612578425185e-06
1.081434000000000021e-05 6.265626962108080518e-06
1.127196999999999942e-05 6.744950558773226112e-06
1.174898000000000080e-05 7.257401873369034131e-06
1.224616000000000033e-05 7.804921130155444741e-06
1.276439000000000028e-05 8.389529916289738197e-06
1.330454000000000052e-05 9.013332507908437786e-06
1.386755999999999975e-05 9.678517197116988144e-06
1.445440000000000005e-05 1.038735469987627079e-05
1.506606999999999922e-05 1.114220052670475960e-05
1.570362999999999859e-05 1.194549310413446626e-05
1.636817000000000155e-05 1.279975499746770444e-05
1.706081999999999906e-05 1.370759090296302573e-05
1.778279000000000123e-05 1.467168853191496041e-05
1.853531999999999993e-05 1.569481544855430195e-05
1.931967999999999931e-05 1.677982192178687333e-05
2.013724000000000034e-05 1.792963232430429678e-05
2.098939999999999931e-05 1.914725039473961550e-05
2.187762000000000010e-05 2.043575529802432289e-05
2.280342000000000062e-05 2.179829587363616230e-05
2.376840000000000100e-05 2.323809194063021570e-05
2.477421999999999876e-05 2.475843390168946961e-05
2.582259999999999905e-05 2.636266643812272453e-05
2.691534999999999972e-05 2.805420722541283380e-05
2.805433999999999947e-05 2.983652397316979808e-05
2.924151999999999917e-05 3.171313529900470602e-05
3.047895000000000064e-05 3.368761341570213530e-05
3.176874000000000240e-05 3.576356741357729482e-05
3.311311000000000050e-05 3.794465177097672937e-05
3.451437000000000070e-05 4.023454459838486311e-05
3.597493000000000218e-05 4.263694917986109601e-05
3.749729999999999757e-05 4.515559245969076721e-05
3.908409000000000004e-05 4.779419588697114387e-05
4.073802999999999729e-05 5.055648689087799966e-05
4.246195999999999825e-05 5.344617160125175915e-05
4.425883999999999992e-05 5.646693112248417395e-05
4.613176000000000163e-05 5.962239760438357340e-05
4.808392999999999755e-05 6.291614289488494923e-05
5.011871999999999980e-05 6.635165434841319742e-05
5.223962000000000180e-05 6.993231242079056651e-05
5.445027000000000070e-05 7.366136394236170580e-05
5.675445999999999735e-05 7.754189058162745489e-05
5.915615999999999843e-05 8.157677428381870780e-05
6.165949999999999469e-05 8.576865573914758847e-05
6.426877000000000165e-05 9.011989323273061512e-05
6.698845999999999458e-05 9.463250387875713030e-05
6.982324000000000202e-05 9.930811355915318865e-05
7.277797999999999874e-05 1.041478851176502388e-04
7.585776000000000129e-05 1.091524507302127031e-04
7.906785999999999958e-05 1.143218184527738078e-04
8.241381000000000097e-05 1.196552986453823416e-04
8.590135000000000045e-05 1.251513851883620499e-04
8.953647999999999761e-05 1.308076496851690897e-04
9.332542999999999460e-05 1.366206135071029520e-04
9.727472000000000028e-05 1.425856270194607442e-04
1.013910999999999990e-04 1.486966922787260172e-04
1.056817999999999950e-04 1.549463109116579272e-04
1.101538999999999958e-04 1.613253668864487165e-04
1.148154000000000053e-04 1.678227991201071705e-04
1.196740999999999999e-04 1.744255548237760042e-04
1.247383999999999982e-04 1.811183128571891804e-04
1.300170000000000123e-04 1.878832347218979410e-04
1.355189000000000079e-04 1.946998072966339753e-04
1.412538000000000129e-04 2.015445358280885848e-04
1.472312999999999942e-04 2.083907877104842989e-04
1.534616999999999947e-04 2.152085646331186250e-04
1.599558000000000110e-04 2.219641921700945663e-04
1.667247000000000065e-04 2.286202841461165919e-04
1.737801000000000135e-04 2.351354974595381935e-04
1.811340000000000042e-04 2.414644548801284281e-04
1.887990999999999996e-04 2.475576541701115553e-04
1.967886000000000017e-04 2.533615891629678856e-04
2.051161999999999929e-04 2.588187580128938959e-04
2.137961999999999979e-04 2.638679990184619089e-04
2.228435000000000019e-04 2.684448133569821955e-04
2.322737000000000120e-04 2.724819036739525987e-04
2.421028999999999889e-04 2.759099533406689036e-04
2.523480999999999836e-04 2.786584592791226415e-04
2.630267999999999734e-04 2.806570243801716756e-04
2.741573999999999986e-04 2.818366527167956957e-04
2.857590999999999929e-04 2.821315139822230746e-04
2.978516000000000063e-04 2.814808367356186943e-04
3.104560000000000240e-04 2.798311308327191410e-04
3.235937000000000253e-04 2.771386869755285620e-04
3.372873000000000190e-04 2.733721284277900202e-04
3.515603999999999756e-04 2.685152655129247295e-04
3.664375999999999896e-04 2.625699561567928337e-04
3.819442999999999948e-04 2.555589075077877438e-04
3.981071999999999888e-04 2.475283560080622286e-04
4.149539999999999848e-04 2.385503747745204431e-04
4.325137999999999856e-04 2.287246484247716140e-04
4.508167000000000099e-04 2.181796541464454931e-04
4.698940999999999773e-04 2.070727355551869485e-04
4.897788000000000141e-04 1.955891601997840758e-04
5.105049999999999649e-04 1.839397745953997459e-04
5.321082999999999889e-04 1.723570356331481960e-04
5.546257000000000183e-04 1.610895172605933011e-04
5.780959999999999484e-04 1.503945370816854241e-04
6.025596000000000034e-04 1.405292102490305565e-04
6.280584000000000514e-04 1.317400745126601300e-04
6.546361999999999581e-04 1.242516168614265224e-04
6.823387000000000202e-04 1.182544120256237531e-04
7.112134999999999898e-04 1.138935959316628784e-04
7.413101999999999756e-04 1.112587205597402769e-04
7.726805999999999692e-04 1.103760732689970994e-04
8.053783999999999596e-04 1.112046426517395646e-04
8.394599999999999892e-04 1.136367990863455221e-04
8.749838000000000234e-04 1.175045538358134652e-04
9.120108000000000468e-04 1.225917378392594635e-04
9.506048000000000232e-04 1.286519089643522714e-04
9.908319000000000501e-04 1.354308299721204321e-04
1.032761000000000096e-03 1.426914820933104149e-04
1.076464999999999974e-03 1.502385917249976889e-04
1.122018000000000017e-03 1.579390344776591514e-04
1.169499000000000059e-03 1.657342998204447122e-04
1.218990000000000091e-03 1.736419254826053330e-04
1.270574000000000009e-03 1.817442501281314640e-04
1.324342000000000054e-03 1.901652922076728597e-04
1.380383999999999908e-03 1.990396527438334886e-04
1.438798999999999937e-03 2.084800752434643552e-04
1.499684999999999950e-03 2.185520326034495666e-04
1.563148000000000098e-03 2.292630587903162062e-04
1.629295999999999913e-03 2.405706962395027463e-04
1.698244000000000012e-03 2.524073198399603545e-04
1.770108999999999962e-03 2.647131925113314454e-04
1.845014999999999980e-03 2.774640224743896979e-04
1.923091999999999944e-03 2.906808395649242301e-04
2.004472000000000198e-03 3.044170270587494699e-04
2.089296000000000035e-03 3.187285919962771965e-04
2.177709999999999802e-03 3.336444119499637441e-04
2.269864999999999817e-03 3.491542783731864386e-04
2.365920000000000089e-03 3.652221161727055776e-04
2.466039000000000165e-03 3.818140232924371121e-04
2.570395999999999966e-03 3.989187850173548907e-04
2.679168000000000001e-03 4.165434149128762593e-04
2.792544000000000103e-03 4.346876795490353228e-04
2.910717000000000165e-03 4.533224925149938298e-04
3.033890999999999932e-03 4.723936672141545198e-04
3.162278000000000137e-03 4.918439007437008185e-04
3.296097000000000003e-03 5.116241045931623843e-04
3.435578999999999803e-03 5.316782257083037732e-04
3.580963999999999849e-03 5.519235043117917162e-04
3.732501999999999955e-03 5.722534539212342569e-04
3.890451000000000065e-03 5.925540670055653948e-04
4.055084999999999940e-03 6.127018339025878252e-04
4.226686000000000332e-03 6.325469471618808256e-04
4.405548999999999923e-03 6.519129071376538820e-04
4.591979999999999847e-03 6.706079252791066281e-04
4.786300999999999750e-03 6.884192939766841518e-04
4.988845000000000432e-03 7.051049976270277716e-04
5.199959999999999999e-03 7.204012965149751875e-04
5.420008999999999938e-03 7.340244925731867790e-04
5.649369999999999913e-03 7.456660240451210096e-04
5.888436999999999838e-03 7.550002856297400493e-04
6.137619999999999881e-03 7.616880387193618665e-04
6.397347999999999750e-03 7.653793898719425150e-04
6.668068000000000085e-03 7.657249747100462528e-04
6.950243000000000046e-03 7.623827303683358312e-04
7.244360000000000036e-03 7.550315803996060634e-04
7.550921999999999842e-03 7.433848566466839643e-04
7.870458000000000315e-03 7.272069580585604261e-04
8.203514999999999766e-03 7.063329221342188637e-04
8.550666999999999643e-03 6.806881324439615450e-04
8.912509000000000750e-03 6.503101857529960733e-04
9.289663999999999561e-03 6.153706029321872077e-04
9.682779000000000733e-03 5.761942860022225893e-04
1.009253000000000060e-02 5.332760476930945449e-04
1.051962000000000036e-02 4.872908179057099890e-04
1.096478000000000036e-02 4.390951005555618933e-04
1.142877999999999949e-02 3.897170665555532059e-04
1.191241999999999995e-02 3.403316470964309415e-04
1.241652000000000033e-02 2.922191778455355822e-04
1.294196000000000062e-02 2.467055805490164701e-04
1.348963000000000072e-02 2.050847703177087532e-04
1.406048000000000020e-02 1.685261534146392608e-04
1.465548000000000024e-02 1.379729248903343902e-04
1.527565999999999993e-02 1.140406182953564276e-04
1.592208999999999985e-02 9.692864697940257871e-05
1.659586999999999868e-02 8.636016234524676312e-05
1.729815999999999993e-02 8.156643197866872180e-05
1.803017999999999982e-02 8.132989749776576953e-05
1.879317000000000140e-02 8.409418369267786101e-05
1.958845000000000031e-02 8.813903999292531692e-05
2.041737999999999886e-02 9.180431192004330585e-05
2.128139000000000072e-02 9.373118459267288098e-05
2.218196000000000057e-02 9.307513630697303200e-05
2.312064999999999954e-02 8.963849086347682989e-05
2.409905000000000033e-02 8.387653028966465904e-05
2.511885999999999980e-02 7.675392672559051485e-05
2.618182999999999969e-02 6.946686815491438739e-05
2.728977999999999959e-02 6.309308517641191755e-05
2.844460999999999865e-02 5.827140752974034626e-05
2.964831000000000064e-02 5.502456854630139468e-05
3.090294999999999848e-02 5.280660638441960793e-05
3.221069000000000015e-02 5.077780290415216587e-05
3.357376000000000110e-02 4.820784252724247937e-05
3.499452000000000118e-02 4.482888282331721509e-05
3.647539000000000337e-02 4.095822180172562356e-05
3.801894000000000107e-02 3.731195078528130562e-05
3.962779999999999775e-02 3.460276719699903654e-05
4.130475000000000119e-02 3.315887324764805083e-05
4.305265999999999954e-02 3.280389066903015120e-05
4.487453999999999749e-02 3.306301387829217026e-05
4.677350999999999731e-02 3.351360497756136281e-05
4.875285000000000035e-02 3.398298163847229142e-05
5.081593999999999695e-02 3.444438344390888526e-05
5.296634000000000064e-02 3.476724848914950535e-05
5.520773999999999820e-02 3.463541547995321993e-05
5.754399000000000319e-02 3.375829653595766543e-05
5.997911000000000215e-02 3.215213581933283105e-05
6.251726999999999979e-02 3.018121917491674235e-05
6.516283999999999965e-02 2.834452345196274939e-05
6.792035999999999907e-02 2.706828833968603299e-05
7.079457999999999585e-02 2.663590401519771365e-05
7.379041999999999546e-02 2.711007034593298324e-05
7.691304000000000196e-02 2.818536373246925933e-05
8.016781000000000601e-02 2.920074910360501502e-05
8.356030000000000402e-02 2.946098421479977718e-05
8.709635999999999767e-02 2.865298886660814508e-05
9.078205000000000302e-02 2.707608600145873460e-05
9.462371999999999450e-02 2.556452772028434256e-05
9.862795000000000589e-02 2.502912531034691114e-05
1.028016000000000069e-01 2.576261307250580194e-05
1.071518999999999944e-01 2.706169947199095900e-05
1.116863000000000022e-01 2.766208965003373496e-05
1.164126000000000050e-01 2.683454802702954636e-05
1.213388999999999995e-01 2.523371287225153195e-05
1.264735999999999916e-01 2.442822311528526063e-05
1.318256999999999901e-01 2.519591706726728782e-05
1.374042000000000041e-01 2.639925972921354860e-05
1.432188000000000072e-01 2.623879397149040971e-05
1.492794000000000065e-01 2.480398578576105786e-05
1.555966000000000016e-01 2.421336401054982498e-05
1.621809999999999918e-01 2.531103107804596157e-05
1.690441000000000027e-01 2.594197328895496237e-05
1.761976000000000098e-01 2.470924792024582916e-05
1.836538000000000059e-01 2.396777313622577520e-05
1.914256000000000013e-01 2.515335958951371136e-05
1.995261999999999869e-01 2.535688077216308135e-05
2.079697000000000073e-01 2.399148844673428988e-05
2.167704000000000020e-01 2.446888203087763358e-05
2.259435999999999944e-01 2.521814147385521867e-05
2.355048999999999892e-01 2.394938454176514722e-05
2.454708999999999919e-01 2.445904742306553633e-05
2.558585999999999916e-01 2.490714932711361236e-05
2.666858999999999758e-01 2.375069265262860381e-05
2.779712999999999767e-01 2.485207510846506636e-05
2.897344000000000031e-01 2.408345303581067479e-05
3.019952000000000192e-01 2.434852336614129966e-05
3.147748000000000212e-01 2.440549899513226018e-05
3.280952999999999786e-01 2.408756254205148632e-05
3.419793999999999889e-01 2.447570825789326731e-05
3.564511000000000207e-01 2.410344259745117777e-05
3.715352000000000099e-01 2.429456449792382638e-05
3.872575999999999796e-01 2.438256207915473969e-05
4.036453999999999875e-01 2.392769166398925272e-05
4.207266000000000061e-01 2.467352261399340102e-05
4.385306999999999955e-01 2.395677125636862094e-05
4.570882000000000001e-01 2.417222049010888608e-05
4.764309999999999934e-01 2.464039818214553803e-05
4.965922999999999865e-01 2.412654299269949870e-05
5.176068000000000335e-01 2.393455402306422300e-05
5.395105999999999513e-01 2.434535113424146608e-05
5.623413000000000439e-01 2.462122150883595920e-05
5.861382000000000536e-01 2.453255451690876485e-05
6.109419999999999851e-01 2.432044286093079281e-05
6.367954999999999588e-01 2.416768134799627684e-05
6.637431000000000303e-01 2.410564942415058530e-05
6.918309999999999738e-01 2.411198937655572913e-05
7.211075000000000124e-01 2.418593172089788271e-05
7.516228999999999827e-01 2.434913765317847455e-05
7.834295999999999482e-01 2.455214728081545422e-05
8.165824000000000416e-01 2.455328856182617428e-05
8.511379999999999502e-01 2.416861382413059586e-05
8.871559999999999446e-01 2.403963050153652060e-05
9.246982000000000257e-01 2.455342280282482857e-05
9.638290000000000468e-01 2.410705846460699405e-05
1.004615999999999953e+00 2.430864867353854051e-05
1.047128999999999976e+00 2.412594245536021014e-05
1.091439999999999966e+00 2.444426584861128133e-05
1.137626999999999944e+00 2.381216409738307334e-05
1.185769000000000073e+00 2.418785236064820900e-05
1.235946999999999907e+00 2.454518994888201840e-05
1.288249999999999895e+00 2.443624862007454112e-05
1.342764999999999986e+00 2.427321660297583007e-05
1.399586999999999914e+00 2.434934246799905498e-05
1.458814000000000055e+00 2.479944271711247915e-05
